# # Cu                                                           FEFF 9.6.4  
# # POT  SCF 100  4.0000   0, core-hole, AFOLP (folp(0)= 1.150)
# # Abs   Z=29 Rmt= 1.437 Rnm= 1.489 K  shell
# # Pot 1 Z=29 Rmt= 1.344 Rnm= 1.381
# # Gam_ch=1.729E+00 H-L exch Vi= 0.000E+00 Vr= 0.000E+00
# # Mu=-7.990E+00 kf=1.994E+00 Vint=-1.742E+01 Rs_int= 1.819
# # PATH  Rmax= 8.000,  Keep_limit= 0.00, Heap_limit 0.00  Pwcrit= 2.50%
#  S02=1.000  Temp= 450.00  Debye_temp= 315.00  Global_sig2= 0.00000
#  Energy zero shift, vr, vi    0.00000E+00   0.00000E+00
#  Curved wave amplitude ratio filter   4.000%
#     file         sig2 tot  cw amp ratio   deg  nlegs   reff  inp sig2
#           1       0.01186    100.00     12.00     2   2.5323
#           2       0.01638     22.99      6.00     2   3.5812
#           3       0.01119     10.61     48.00     3   3.7984
#           4       0.01433      7.52     48.00     3   4.3229
#           5       0.01536     55.07     24.00     2   4.3860
#           6       0.01453     11.25     48.00     3   4.7253
#           7       0.01447     17.45     96.00     3   4.7253
#           8       0.01475     18.67     12.00     2   5.0645
#           9       0.01531      8.74     12.00     3   5.0646
#          10       0.01475     39.86     24.00     3   5.0645
#          11       0.01531      9.74     12.00     4   5.0646
#          12       0.06105      4.05     12.00     4   5.0646
#          14       0.01475     31.90     12.00     4   5.0645
#          16       0.01555     27.24     24.00     2   5.6623
#          17       0.01645      8.94     48.00     3   5.8879
#          18       0.01553      5.83     48.00     3   5.8879
#          19       0.01562      6.34     48.00     3   5.8879
#          20       0.01456      4.31     96.00     3   5.9914
#          21       0.01476      4.97     96.00     3   5.9914
#          22       0.01476      4.66     96.00     4   5.9914
#          23       0.01456      4.81     96.00     4   5.9914
#          25       0.01504      6.95      8.00     2   6.2028
#          26       0.01510      5.01     96.00     3   6.2903
#    23/  24 paths used
#  -----------------------------------------------------------------------
#       k          chi          mag           phase @#
     0.0000   -8.755282E-02  1.470638E-01 -2.503905E+00
     0.0500   -8.843116E-02  1.489086E-01 -2.505742E+00
     0.1000   -8.934490E-02  1.507573E-01 -2.507260E+00
     0.1500   -9.227398E-02  1.561987E-01 -2.509608E+00
     0.2000   -9.549476E-02  1.616482E-01 -2.509596E+00
     0.2500   -1.014194E-01  1.705586E-01 -2.504786E+00
     0.3000   -1.080433E-01  1.793987E-01 -2.495273E+00
     0.3500   -1.181936E-01  1.911586E-01 -2.475013E+00
     0.4000   -1.293821E-01  2.026414E-01 -2.449073E+00
     0.4500   -1.447075E-01  2.163479E-01 -2.408912E+00
     0.5000   -1.610946E-01  2.294898E-01 -2.363435E+00
     0.5500   -1.816216E-01  2.440710E-01 -2.302355E+00
     0.6000   -2.026623E-01  2.577775E-01 -2.236972E+00
     0.6500   -2.268695E-01  2.721286E-01 -2.155846E+00
     0.7000   -2.502745E-01  2.853026E-01 -2.071542E+00
     0.7500   -2.746456E-01  2.983356E-01 -1.971997E+00
     0.8000   -2.961128E-01  3.099096E-01 -1.870306E+00
     0.8500   -3.151562E-01  3.205212E-01 -1.754019E+00
     0.9000   -3.287302E-01  3.294405E-01 -1.636474E+00
     0.9500   -3.361116E-01  3.368184E-01 -1.506002E+00
     1.0000   -3.357979E-01  3.423315E-01 -1.375110E+00
     1.0500   -3.260772E-01  3.456717E-01 -1.232480E+00
     1.1000   -3.077729E-01  3.470967E-01 -1.090172E+00
     1.1500   -2.789731E-01  3.460087E-01 -9.378030E-01
     1.2000   -2.428527E-01  3.430919E-01 -7.864293E-01
     1.2500   -1.979566E-01  3.375911E-01 -6.265824E-01
     1.3000   -1.491724E-01  3.304823E-01 -4.683088E-01
     1.3500   -9.580015E-02  3.209831E-01 -3.030772E-01
     1.4000   -4.323417E-02  3.101738E-01 -1.398423E-01
     1.4500    8.685121E-03  2.974004E-01  2.920762E-02
     1.5000    5.523696E-02  2.835763E-01  1.960402E-01
     1.5500    9.643668E-02  2.683436E-01  3.676009E-01
     1.6000    1.289152E-01  2.520685E-01  5.368473E-01
     1.6500    1.534373E-01  2.355027E-01  7.096007E-01
     1.7000    1.669927E-01  2.167735E-01  8.793990E-01
     1.7500    1.720619E-01  1.986346E-01  1.047593E+00
     1.8000    1.676420E-01  1.787814E-01  1.215929E+00
     1.8500    1.561508E-01  1.591317E-01  1.376936E+00
     1.9000    1.392837E-01  1.394285E-01  1.525222E+00
     1.9500    1.196990E-01  1.201365E-01  1.656168E+00
     2.0000    1.007993E-01  1.025281E-01  1.754692E+00
     2.0500    8.448140E-02  8.695640E-02  1.809956E+00
     2.1000    7.421822E-02  7.637167E-02  1.808832E+00
     2.1500    7.052052E-02  7.200420E-02  1.774151E+00
     2.2000    7.230348E-02  7.354657E-02  1.754915E+00
     2.2500    7.968026E-02  8.157988E-02  1.787020E+00
     2.3000    8.595128E-02  9.089916E-02  1.902259E+00
     2.3500    8.663172E-02  9.892919E-02  2.074721E+00
     2.4000    7.892615E-02  1.043316E-01  2.283658E+00
     2.4500    6.370757E-02  1.081211E-01  2.511494E+00
     2.5000    4.040614E-02  1.084193E-01  2.759693E+00
     2.5500    1.246851E-02  1.049775E-01  3.022538E+00
     2.6000   -1.510924E-02  9.785026E-02  3.296625E+00
     2.6500   -3.736855E-02  9.454421E-02  3.547932E+00
     2.7000   -5.533308E-02  8.991282E-02  3.804496E+00
     2.7500   -6.709347E-02  8.404172E-02  4.066118E+00
     2.8000   -7.156629E-02  7.704089E-02  4.333129E+00
     2.8500   -7.214608E-02  7.239088E-02  4.630127E+00
     2.9000   -6.563289E-02  6.724343E-02  4.931693E+00
     2.9500   -5.333660E-02  6.168530E-02  5.238719E+00
     3.0000   -3.723148E-02  5.581293E-02  5.552908E+00
     3.0500   -1.951913E-02  5.323597E-02  5.907776E+00
     3.1000   -9.526428E-04  5.066990E-02  6.264383E+00
     3.1500    1.607526E-02  4.808313E-02  6.624071E+00
     3.2000    2.942021E-02  4.542879E-02  6.987631E+00
     3.2500    4.094747E-02  4.691089E-02  7.344254E+00
     3.3000    4.752484E-02  4.813513E-02  7.694573E+00
     3.3500    4.824715E-02  4.908778E-02  8.039314E+00
     3.4000    4.306206E-02  4.976550E-02  8.379031E+00
     3.4500    3.522408E-02  5.228464E-02  8.685576E+00
     3.5000    2.289593E-02  5.426050E-02  8.989168E+00
     3.5500    7.556775E-03  5.569028E-02  9.288665E+00
     3.6000   -8.906177E-03  5.660992E-02  9.582760E+00
     3.6500   -2.429515E-02  5.768182E-02  9.859538E+00
     3.7000   -3.783020E-02  5.808468E-02  1.013407E+01
     3.7500   -4.797538E-02  5.776359E-02  1.040487E+01
     3.8000   -5.370334E-02  5.669315E-02  1.066936E+01
     3.8500   -5.495066E-02  5.507238E-02  1.092908E+01
     3.9000   -5.184678E-02  5.275046E-02  1.118094E+01
     3.9500   -4.534959E-02  4.979894E-02  1.142151E+01
     4.0000   -3.687839E-02  4.633913E-02  1.164598E+01
     4.0500   -2.747829E-02  4.226828E-02  1.185866E+01
     4.1000   -1.899476E-02  3.804270E-02  1.204358E+01
     4.1500   -1.251905E-02  3.401976E-02  1.218952E+01
     4.2000   -8.518354E-03  3.073323E-02  1.228552E+01
     4.2500   -6.308277E-03  2.845286E-02  1.234280E+01
     4.3000   -5.506987E-03  2.800581E-02  1.236844E+01
     4.3500   -4.870281E-03  2.961896E-02  1.240119E+01
     4.4000   -3.015771E-03  3.300757E-02  1.247488E+01
     4.4500    1.228484E-03  3.703112E-02  1.259955E+01
     4.5000    8.211843E-03  4.163787E-02  1.276489E+01
     4.5500    1.786251E-02  4.641125E-02  1.296144E+01
     4.6000    2.940882E-02  5.103996E-02  1.318043E+01
     4.6500    4.101255E-02  5.471200E-02  1.341384E+01
     4.7000    5.129135E-02  5.783841E-02  1.365675E+01
     4.7500    5.870686E-02  6.031737E-02  1.390556E+01
     4.8000    6.207110E-02  6.208376E-02  1.415736E+01
     4.8500    6.050212E-02  6.275321E-02  1.440583E+01
     4.9000    5.460868E-02  6.274246E-02  1.465203E+01
     4.9500    4.516241E-02  6.210905E-02  1.489381E+01
     5.0000    3.334654E-02  6.094582E-02  1.512901E+01
     5.0500    2.055102E-02  5.917035E-02  1.535325E+01
     5.1000    8.052814E-03  5.724664E-02  1.556683E+01
     5.1500   -3.355348E-03  5.537658E-02  1.576859E+01
     5.2000   -1.333179E-02  5.377510E-02  1.595849E+01
     5.2500   -2.189198E-02  5.255033E-02  1.613766E+01
     5.3000   -2.948439E-02  5.198815E-02  1.631099E+01
     5.3500   -3.650829E-02  5.214142E-02  1.648361E+01
     5.4000   -4.316910E-02  5.296506E-02  1.666078E+01
     5.4500   -4.923536E-02  5.421292E-02  1.684689E+01
     5.5000   -5.425990E-02  5.578625E-02  1.704430E+01
     5.5500   -5.744191E-02  5.746047E-02  1.725334E+01
     5.6000   -5.791085E-02  5.902046E-02  1.747297E+01
     5.6500   -5.484453E-02  6.013810E-02  1.770148E+01
     5.7000   -4.812596E-02  6.079901E-02  1.793620E+01
     5.7500   -3.806702E-02  6.090668E-02  1.817442E+01
     5.8000   -2.553201E-02  6.041573E-02  1.841324E+01
     5.8500   -1.178333E-02  5.921946E-02  1.864924E+01
     5.9000    1.715070E-03  5.751907E-02  1.887938E+01
     5.9500    1.375354E-02  5.545307E-02  1.910019E+01
     6.0000    2.357080E-02  5.322626E-02  1.930832E+01
     6.0500    3.098250E-02  5.107193E-02  1.950139E+01
     6.1000    3.642289E-02  4.938481E-02  1.967896E+01
     6.1500    4.064338E-02  4.847635E-02  1.984393E+01
     6.2000    4.441629E-02  4.858560E-02  2.000305E+01
     6.2500    4.820292E-02  4.980933E-02  2.016569E+01
     6.3000    5.190726E-02  5.207194E-02  2.034080E+01
     6.3500    5.479687E-02  5.515440E-02  2.053428E+01
     6.4000    5.562849E-02  5.875885E-02  2.074824E+01
     6.4500    5.295964E-02  6.257023E-02  2.098195E+01
     6.5000    4.557316E-02  6.629520E-02  2.123321E+01
     6.5500    3.258971E-02  6.962794E-02  2.150406E+01
     6.6000    1.465954E-02  7.233516E-02  2.178707E+01
     6.6500   -6.577026E-03  7.425867E-02  2.207983E+01
     6.7000   -2.856771E-02  7.528554E-02  2.238036E+01
     6.7500   -4.830082E-02  7.534405E-02  2.268704E+01
     6.8000   -6.290180E-02  7.439992E-02  2.299857E+01
     6.8500   -7.023438E-02  7.245277E-02  2.331385E+01
     6.9000   -6.936228E-02  6.953265E-02  2.363196E+01
     6.9500   -6.075977E-02  6.569647E-02  2.395208E+01
     7.0000   -4.621923E-02  6.102433E-02  2.427343E+01
     7.0500   -2.839822E-02  5.561145E-02  2.459680E+01
     7.1000   -1.053092E-02  4.957503E-02  2.491869E+01
     7.1500    4.502242E-03  4.305203E-02  2.523751E+01
     7.2000    1.469047E-02  3.618828E-02  2.555075E+01
     7.2500    1.923703E-02  2.913671E-02  2.585387E+01
     7.3000    1.861560E-02  2.206054E-02  2.613714E+01
     7.3500    1.434376E-02  1.515519E-02  2.637483E+01
     7.4000    8.544016E-03  8.777224E-03  2.647250E+01
     7.4500    3.406956E-03  4.566639E-03  2.597486E+01
     7.5000    6.851127E-04  6.903984E-03  2.523214E+01
     7.5500    1.439026E-03  1.186278E-02  2.525435E+01
     7.6000    5.560191E-03  1.673943E-02  2.547134E+01
     7.6500    1.213107E-02  2.113247E-02  2.574418E+01
     7.7000    1.962009E-02  2.492549E-02  2.603892E+01
     7.7500    2.627160E-02  2.807046E-02  2.634359E+01
     7.8000    3.051143E-02  3.055058E-02  2.665291E+01
     7.8500    3.127737E-02  3.236967E-02  2.696406E+01
     7.9000    2.821071E-02  3.354752E-02  2.727536E+01
     7.9500    2.168274E-02  3.411698E-02  2.758562E+01
     8.0000    1.266877E-02  3.412167E-02  2.789394E+01
     8.0500    2.524779E-03  3.373656E-02  2.819943E+01
     8.1000   -7.395546E-03  3.290661E-02  2.850101E+01
     8.1500   -1.584402E-02  3.169385E-02  2.879783E+01
     8.2000   -2.194165E-02  3.016456E-02  2.908886E+01
     8.2500   -2.528150E-02  2.838830E-02  2.937291E+01
     8.3000   -2.592801E-02  2.643720E-02  2.964855E+01
     8.3500   -2.432758E-02  2.438547E-02  2.991405E+01
     8.4000   -2.116048E-02  2.230911E-02  3.016742E+01
     8.4500   -1.717255E-02  2.028538E-02  3.040646E+01
     8.5000   -1.302345E-02  1.839149E-02  3.062909E+01
     8.5500   -9.247687E-03  1.682000E-02  3.083380E+01
     8.6000   -5.967635E-03  1.551118E-02  3.102101E+01
     8.6500   -3.195349E-03  1.451489E-02  3.119397E+01
     8.7000   -7.866473E-04  1.384914E-02  3.135909E+01
     8.7500    1.466497E-03  1.349118E-02  3.152484E+01
     8.8000    3.740069E-03  1.338034E-02  3.169922E+01
     8.8500    6.103711E-03  1.343268E-02  3.188762E+01
     8.9000    8.486008E-03  1.355975E-02  3.209211E+01
     8.9500    1.068611E-02  1.368300E-02  3.231216E+01
     9.0000    1.242593E-02  1.374095E-02  3.254566E+01
     9.0500    1.357635E-02  1.384104E-02  3.279084E+01
     9.1000    1.378925E-02  1.381254E-02  3.304481E+01
     9.1500    1.295453E-02  1.363853E-02  3.330477E+01
     9.2000    1.112749E-02  1.331509E-02  3.356810E+01
     9.2500    8.522807E-03  1.284930E-02  3.383231E+01
     9.3000    5.469471E-03  1.225742E-02  3.409499E+01
     9.3500    2.340325E-03  1.156312E-02  3.435372E+01
     9.4000   -5.238833E-04  1.079581E-02  3.460606E+01
     9.4500   -2.875969E-03  9.989045E-03  3.484957E+01
     9.5000   -4.595051E-03  9.178831E-03  3.508183E+01
     9.5500   -5.749463E-03  8.472114E-03  3.530342E+01
     9.6000   -6.366913E-03  7.818153E-03  3.550917E+01
     9.6500   -6.595432E-03  7.254387E-03  3.569879E+01
     9.7000   -6.592557E-03  6.810505E-03  3.587465E+01
     9.7500   -6.477767E-03  6.501861E-03  3.604220E+01
     9.8000   -6.304094E-03  6.324724E-03  3.620911E+01
     9.8500   -6.054923E-03  6.256756E-03  3.638300E+01
     9.9000   -5.664023E-03  6.263318E-03  3.656934E+01
     9.9500   -5.050183E-03  6.306311E-03  3.677046E+01
    10.0000   -4.154392E-03  6.351455E-03  3.698614E+01
    10.0500   -3.035631E-03  6.486794E-03  3.721212E+01
    10.1000   -1.631712E-03  6.600043E-03  3.744929E+01
    10.1500   -2.270689E-05  6.676720E-03  3.769571E+01
    10.2000    1.661661E-03  6.707390E-03  3.794945E+01
    10.2500    3.262620E-03  6.686881E-03  3.820881E+01
    10.3000    4.619011E-03  6.613411E-03  3.847231E+01
    10.3500    5.593879E-03  6.487735E-03  3.873876E+01
    10.4000    6.095702E-03  6.312384E-03  3.900714E+01
    10.4500    6.090888E-03  6.091026E-03  3.927663E+01
    10.5000    5.606405E-03  5.827967E-03  3.954653E+01
    10.5500    4.723324E-03  5.527805E-03  3.981618E+01
    10.6000    3.563307E-03  5.195241E-03  4.008489E+01
    10.6500    2.270584E-03  4.835048E-03  4.035186E+01
    10.7000    9.920007E-04  4.452184E-03  4.061601E+01
    10.7500   -1.424143E-04  4.052030E-03  4.087586E+01
    10.8000   -1.036067E-03  3.640744E-03  4.112927E+01
    10.8500   -1.637378E-03  3.225727E-03  4.137310E+01
    10.9000   -1.944363E-03  2.816233E-03  4.160276E+01
    10.9500   -2.000953E-03  2.424159E-03  4.181165E+01
    11.0000   -1.885005E-03  2.065038E-03  4.199084E+01
    11.0500   -1.735571E-03  1.803291E-03  4.213658E+01
    11.1000   -1.577160E-03  1.602187E-03  4.223452E+01
    11.1500   -1.480440E-03  1.491447E-03  4.228993E+01
    11.2000   -1.484798E-03  1.489434E-03  4.233259E+01
    11.2500   -1.588020E-03  1.588076E-03  4.240313E+01
    11.3000   -1.745980E-03  1.757184E-03  4.252449E+01
    11.3500   -1.883106E-03  1.962301E-03  4.269657E+01
    11.4000   -1.911627E-03  2.175579E-03  4.290922E+01
    11.4500   -1.755146E-03  2.377195E-03  4.315171E+01
    11.5000   -1.370696E-03  2.553529E-03  4.341568E+01
    11.5500   -7.635186E-04  2.695355E-03  4.369509E+01
    11.6000    9.540779E-06  2.796651E-03  4.398571E+01
    11.6500    8.492842E-04  2.853897E-03  4.428446E+01
    11.7000    1.634067E-03  2.865649E-03  4.458908E+01
    11.7500    2.245589E-03  2.832255E-03  4.489779E+01
    11.8000    2.594239E-03  2.755639E-03  4.520914E+01
    11.8500    2.637814E-03  2.639101E-03  4.552186E+01
    11.9000    2.389144E-03  2.487129E-03  4.583473E+01
    11.9500    1.911116E-03  2.305196E-03  4.614649E+01
    12.0000    1.300756E-03  2.099559E-03  4.645574E+01
    12.0500    6.890703E-04  1.952205E-03  4.676315E+01
    12.1000    1.039666E-04  1.787631E-03  4.706570E+01
    12.1500   -3.785862E-04  1.610450E-03  4.736119E+01
    12.2000   -7.117222E-04  1.425665E-03  4.764659E+01
    12.2500   -8.830754E-04  1.238708E-03  4.791752E+01
    12.3000   -9.122553E-04  1.055590E-03  4.816747E+01
    12.3500   -8.417310E-04  8.832708E-04  4.838678E+01
    12.4000   -7.238571E-04  7.303004E-04  4.856175E+01
    12.4500   -6.074125E-04  6.075070E-04  4.867704E+01
    12.5000   -5.267940E-04  5.270935E-04  4.872840E+01
    12.5500   -4.960626E-04  4.967005E-04  4.874537E+01
    12.6000   -5.086725E-04  5.107644E-04  4.878522E+01
    12.6500   -5.422918E-04  5.522663E-04  4.888503E+01
    12.7000   -5.669911E-04  6.037240E-04  4.904532E+01
    12.7500   -5.544672E-04  6.530810E-04  4.925139E+01
    12.8000   -4.859670E-04  6.933659E-04  4.948885E+01
    12.8500   -3.571230E-04  7.209445E-04  4.974724E+01
    12.9000   -1.788132E-04  7.342280E-04  5.001947E+01
    12.9500    2.581647E-05  7.329181E-04  5.030071E+01
    13.0000    2.271336E-04  7.175792E-04  5.058755E+01
    13.0500    4.135387E-04  7.184889E-04  5.087878E+01
    13.1000    5.585318E-04  7.094788E-04  5.117181E+01
    13.1500    6.441292E-04  6.912251E-04  5.146501E+01
    13.2000    6.625350E-04  6.646311E-04  5.175684E+01
    13.2500    6.170160E-04  6.308000E-04  5.204571E+01
    13.3000    5.204773E-04  5.910168E-04  5.232985E+01
    13.3500    3.921817E-04  5.467370E-04  5.260714E+01
    13.4000    2.534429E-04  4.995819E-04  5.287501E+01
    13.4500    1.233092E-04  4.513389E-04  5.313035E+01
    13.5000    1.520428E-05  4.039610E-04  5.336943E+01
    13.5500   -6.478733E-05  3.595498E-04  5.358825E+01
    13.6000   -1.177316E-04  3.202789E-04  5.378349E+01
    13.6500   -1.499764E-04  2.881804E-04  5.395442E+01
    13.7000   -1.702321E-04  2.647186E-04  5.410557E+01
    13.7500   -1.864646E-04  2.502223E-04  5.424790E+01
    13.8000   -2.034535E-04  2.435402E-04  5.439593E+01
    13.8500   -2.216395E-04  2.423053E-04  5.456187E+01
    13.9000   -2.374815E-04  2.436888E-04  5.475168E+01
    13.9500   -2.451011E-04  2.451198E-04  5.496551E+01
    14.0000   -2.386306E-04  2.446519E-04  5.520019E+01
    14.0500   -2.241508E-04  2.517182E-04  5.545026E+01
    14.1000   -1.901071E-04  2.563589E-04  5.571327E+01
    14.1500   -1.376794E-04  2.580117E-04  5.598580E+01
    14.2000   -7.179306E-05  2.563922E-04  5.626486E+01
    14.2500   -2.124468E-07  2.514482E-04  5.654782E+01
    14.3000    6.808944E-05  2.433224E-04  5.683229E+01
    14.3500    1.248378E-04  2.323199E-04  5.711596E+01
    14.4000    1.641340E-04  2.188821E-04  5.739654E+01
    14.4500    1.834825E-04  2.035623E-04  5.767156E+01
    14.5000    1.839442E-04  1.870029E-04  5.793835E+01
    14.5500    1.694431E-04  1.699141E-04  5.819394E+01
    14.6000    1.454825E-04  1.530483E-04  5.843521E+01
    14.6500    1.176663E-04  1.371669E-04  5.865922E+01
    14.7000    9.043730E-05  1.229864E-04  5.886409E+01
    14.7500    6.634591E-05  1.110922E-04  5.905024E+01
    14.8000    4.597326E-05  1.018200E-04  5.922180E+01
    14.8500    2.843460E-05  9.514250E-05  5.938676E+01
    14.9000    1.222442E-05  9.063860E-05  5.955498E+01
    14.9500   -3.907389E-06  8.759822E-05  5.973488E+01
    15.0000   -2.033042E-05  8.521658E-05  5.993116E+01
