# # name:                                                        FEFF 10.0.1 
# # POT  SCF 100  2.8800   0, core-hole, AFOLP (folp(0)= 1.150)
# # Abs   Z= 8 Rmt= 0.961 Rnm= 1.004 K  shell
# # Pot 1 Z=28 Rmt= 1.265 Rnm= 1.325
# # Pot 2 Z= 8 Rmt= 0.991 Rnm= 1.039
# # Gam_ch=1.559E-01 H-L exch Vi= 0.000E+00 Vr=-1.000E+00
# # Mu=-1.272E+01eV kf=2.280E+00 Vint=-2.341E+01eV Rs_int= 1.591
# FMS rfms= 4.5120
# # PATH  Rmax= 0.096,  Keep_limit= 0.00, Heap_limit 0.00  Pwcrit= 2.50%
#  S02=1.000  Temp=   0.00  Debye_temp=   0.00  Global_sig2= 0.00000
#  Energy zero shift, vr, vi    0.00000E+00   3.00000E-01
#  Curved wave amplitude ratio filter   4.000%
#     file         sig2 tot  cw amp ratio   deg  nlegs   reff  inp sig2
#     0/   0 paths used
#  xsedge+ 50, used to normalize mu           4.6927E-03
#  -----------------------------------------------------------------------
#  omega    e    k    mu    mu0     chi     @#
     530.568    -17.765  -1.260  2.02881E-02  2.25713E-02 -2.28318E-03
     531.838    -16.496  -1.120  2.74231E-02  3.23816E-02 -4.95851E-03
     532.958    -15.376  -0.980  3.45503E-02  4.37853E-02 -9.23505E-03
     533.929    -14.405  -0.840  4.43542E-02  6.14110E-02 -1.70568E-02
     534.750    -13.584  -0.700  5.90452E-02  9.08206E-02 -3.17754E-02
     535.422    -12.911  -0.560  8.34882E-02  1.44277E-01 -6.07890E-02
     535.945    -12.389  -0.420  1.28586E-01  2.49981E-01 -1.21395E-01
     536.318    -12.015  -0.280  2.10292E-01  4.50504E-01 -2.40212E-01
     536.542    -11.791  -0.140  3.09413E-01  6.86168E-01 -3.76755E-01
     536.578    -11.756  -0.101  3.29858E-01  7.31323E-01 -4.01465E-01
     536.617    -11.717   0.000  3.53492E-01  7.81452E-01 -4.27960E-01
     536.636    -11.698   0.070  3.65261E-01  8.05509E-01 -4.40248E-01
     536.692    -11.642   0.140  4.02028E-01  8.76475E-01 -4.74447E-01
     536.785    -11.549   0.210  4.66637E-01  9.85047E-01 -5.18410E-01
     536.916    -11.418   0.280  5.57407E-01  1.10617E+00 -5.48768E-01
     537.084    -11.250   0.350  6.49902E-01  1.21101E+00 -5.61105E-01
     537.289    -11.045   0.420  6.67969E-01  1.28684E+00 -6.18869E-01
     537.532    -10.802   0.490  5.59527E-01  1.33598E+00 -7.76452E-01
     537.812    -10.522   0.560  4.69298E-01  1.36519E+00 -8.95896E-01
     538.129    -10.204   0.630  4.72659E-01  1.38046E+00 -9.07803E-01
     538.484     -9.850   0.700  3.72280E-01  1.38605E+00 -1.01377E+00
     538.876     -9.458   0.770  2.04723E-01  1.38488E+00 -1.18016E+00
     539.305     -9.028   0.840  1.40474E-01  1.37895E+00 -1.23848E+00
     539.772     -8.562   0.910  1.90325E-01  1.36966E+00 -1.17933E+00
     540.276     -8.058   0.980  3.37398E-01  1.35801E+00 -1.02061E+00
     540.818     -7.516   1.050  6.07576E-01  1.34474E+00 -7.37163E-01
     541.396     -6.937   1.120  1.06714E+00  1.33041E+00 -2.63270E-01
     542.012     -6.321   1.190  1.81249E+00  1.31545E+00  4.97040E-01
     542.666     -5.668   1.260  2.91419E+00  1.30019E+00  1.61400E+00
     543.357     -4.977   1.330  4.15701E+00  1.28488E+00  2.87213E+00
     544.085     -4.249   1.400  4.83598E+00  1.26971E+00  3.56627E+00
     544.850     -3.484   1.470  4.51757E+00  1.25484E+00  3.26272E+00
     545.653     -2.681   1.540  3.60890E+00  1.24039E+00  2.36851E+00
     546.493     -1.841   1.610  2.65050E+00  1.22642E+00  1.42408E+00
     547.370     -0.963   1.680  1.94841E+00  1.21300E+00  7.35402E-01
     548.285     -0.049   1.750  1.50291E+00  1.20019E+00  3.02716E-01
     549.237      0.904   1.820  1.20977E+00  1.18799E+00  2.17864E-02
     550.227      1.893   1.890  9.90260E-01  1.17640E+00 -1.86138E-01
     551.254      2.920   1.960  8.08316E-01  1.16544E+00 -3.57120E-01
     552.318      3.984   2.030  6.57139E-01  1.15509E+00 -4.97950E-01
     553.419      5.085   2.100  5.35677E-01  1.14532E+00 -6.09642E-01
     554.558      6.224   2.170  4.42331E-01  1.13610E+00 -6.93772E-01
     555.734      7.400   2.240  3.77809E-01  1.12740E+00 -7.49595E-01
     556.948      8.614   2.310  3.45546E-01  1.11918E+00 -7.73633E-01
     558.198      9.865   2.380  3.51528E-01  1.11141E+00 -7.59884E-01
     559.487     11.153   2.450  4.04821E-01  1.10420E+00 -6.99382E-01
     560.812     12.478   2.520  5.11536E-01  1.09753E+00 -5.85990E-01
     562.175     13.841   2.590  6.74486E-01  1.08989E+00 -4.15405E-01
     563.575     15.241   2.660  8.92208E-01  1.07708E+00 -1.84868E-01
     565.013     16.679   2.730  1.12477E+00  1.06299E+00  6.17772E-02
     566.487     18.154   2.800  1.32468E+00  1.05105E+00  2.73623E-01
     568.000     19.666   2.870  1.44831E+00  1.04130E+00  4.07003E-01
     569.549     21.215   2.940  1.47849E+00  1.03263E+00  4.45860E-01
     571.136     22.802   3.010  1.43532E+00  1.02477E+00  4.10547E-01
     572.760     24.426   3.080  1.34873E+00  1.01721E+00  3.31521E-01
     574.422     26.088   3.150  1.23980E+00  1.01021E+00  2.29584E-01
     576.121     27.787   3.220  1.12396E+00  1.00345E+00  1.20512E-01
     577.857     29.523   3.290  1.01389E+00  9.96764E-01  1.71255E-02
     579.630     31.297   3.360  9.17754E-01  9.90271E-01 -7.25173E-02
     581.441     33.107   3.430  8.38396E-01  9.83590E-01 -1.45194E-01
     583.289     34.956   3.500  7.75946E-01  9.77194E-01 -2.01248E-01
     585.175     36.841   3.570  7.29285E-01  9.70651E-01 -2.41365E-01
     587.098     38.764   3.640  6.97263E-01  9.63873E-01 -2.66611E-01
     589.058     40.724   3.710  6.79314E-01  9.57054E-01 -2.77739E-01
     591.056     42.722   3.780  6.75459E-01  9.49765E-01 -2.74306E-01
     593.091     44.757   3.850  6.88520E-01  9.42390E-01 -2.53870E-01
     595.163     46.829   3.920  7.21325E-01  9.34621E-01 -2.13297E-01
     597.272     48.939   3.990  7.75294E-01  9.26427E-01 -1.51133E-01
