# Convoluted with A(omega).
# # Cu                                                           FEFF 9.7.1
# # POT  SCF 100  4.0000   0, screened core-hole, AFOLP (folp(0)= 1.150)
# # Abs   Z=29 Rmt= 1.362 Rnm= 1.399 K  shell
# # Pot 1 Z=29 Rmt= 1.362 Rnm= 1.399
# # Gam_ch=1.729E+00 H-L exch Vi= 0.000E+00 Vr= 0.000E+00
# # Mu=-7.729E+00eV kf=1.989E+00 Vint=-1.660E+01eV Rs_int= 1.823
# FMS rfms= 6.0000
# # PATH  Rmax=-1.000,  Keep_limit= 0.00, Heap_limit 0.00  Pwcrit= 2.50%
#  S02=1.000  Temp=  10.00  Debye_temp= 315.00  Global_sig2= 0.00000
#  Energy zero shift, vr, vi    1.50000E+00   3.00000E-01
#  Curved wave amplitude ratio filter   4.000%
#     file         sig2 tot  cw amp ratio   deg  nlegs   reff  inp sig2
#     0/   0 paths used
#  xsedge+ 50, used to normalize mu           2.4335E-04
#  -----------------------------------------------------------------------
#  omega    e    k    mu    mu0     chi     @#
    8979.411    -16.765  -1.406  1.46870E-02  1.79897E-02 -3.30270E-03
    8980.979    -15.197  -1.252  2.93137E-02  3.59321E-02 -6.61845E-03
    8982.398    -13.778  -1.093  3.93900E-02  4.92748E-02 -9.88483E-03
    8983.667    -12.509  -0.928  5.33885E-02  6.81805E-02 -1.47920E-02
    8984.787    -11.388  -0.753  7.52622E-02  9.83407E-02 -2.30785E-02
    8985.758    -10.418  -0.558  1.10348E-01  1.47113E-01 -3.67649E-02
    8986.580     -9.596  -0.310  1.61415E-01  2.19706E-01 -5.82917E-02
    8987.252     -8.924   0.283  2.17279E-01  3.02181E-01 -8.49016E-02
    8987.774     -8.401   0.466  2.57883E-01  3.59962E-01 -1.02079E-01
    8988.014     -8.162   0.529  2.73758E-01  3.80602E-01 -1.06844E-01
    8988.447     -7.729   0.627  3.03893E-01  4.16730E-01 -1.12837E-01
    8988.879     -7.297   0.712  3.26855E-01  4.40053E-01 -1.13198E-01
    8989.311     -6.865   0.788  3.46937E-01  4.58880E-01 -1.11943E-01
    8989.743     -6.432   0.857  3.64742E-01  4.76123E-01 -1.11381E-01
    8990.176     -6.000   0.921  3.81617E-01  4.95108E-01 -1.13491E-01
    8990.608     -5.568   0.980  3.92911E-01  5.10611E-01 -1.17700E-01
    8990.705     -5.470   0.993  3.94116E-01  5.12977E-01 -1.18861E-01
    8991.135     -5.041   1.048  4.01194E-01  5.27573E-01 -1.26379E-01
    8991.602     -4.574   1.105  4.06396E-01  5.42683E-01 -1.36286E-01
    8992.106     -4.070   1.164  4.11200E-01  5.58503E-01 -1.47304E-01
    8992.647     -3.529   1.223  4.13355E-01  5.70202E-01 -1.56847E-01
    8993.226     -2.950   1.284  4.23372E-01  5.89627E-01 -1.66256E-01
    8993.842     -2.334   1.345  4.34260E-01  6.03963E-01 -1.69703E-01
    8994.495     -1.681   1.408  4.49442E-01  6.17744E-01 -1.68302E-01
    8995.186     -0.990   1.471  4.71846E-01  6.33623E-01 -1.61777E-01
    8995.914     -0.262   1.534  5.05011E-01  6.54866E-01 -1.49855E-01
    8996.680      0.504   1.598  5.46352E-01  6.70961E-01 -1.24609E-01
    8997.482      1.306   1.663  6.00620E-01  6.85529E-01 -8.49087E-02
    8998.322      2.147   1.728  6.69817E-01  7.01180E-01 -3.13639E-02
    8999.200      3.024   1.793  7.49935E-01  7.16423E-01  3.35123E-02
    9000.115      3.939   1.859  8.27091E-01  7.29900E-01  9.71907E-02
    9001.067      4.891   1.925  8.77846E-01  7.43245E-01  1.34601E-01
    9002.056      5.880   1.991  8.83979E-01  7.55549E-01  1.28429E-01
    9003.083      6.907   2.058  8.57319E-01  7.67769E-01  8.95494E-02
    9004.147      7.971   2.125  8.29167E-01  7.79425E-01  4.97425E-02
    9005.249      9.073   2.192  8.21499E-01  7.90818E-01  3.06808E-02
    9006.387     10.212   2.259  8.37988E-01  8.02028E-01  3.59606E-02
    9007.564     11.388   2.326  8.71329E-01  8.13606E-01  5.77235E-02
    9008.777     12.601   2.394  9.08542E-01  8.25772E-01  8.27704E-02
    9010.028     13.852   2.461  9.37891E-01  8.37307E-01  1.00584E-01
    9011.316     15.140   2.529  9.53853E-01  8.48874E-01  1.04979E-01
    9012.641     16.466   2.597  9.51890E-01  8.58897E-01  9.29926E-02
    9014.004     17.828   2.665  9.33867E-01  8.69268E-01  6.45993E-02
    9015.404     19.229   2.733  9.03737E-01  8.79400E-01  2.43370E-02
    9016.842     20.666   2.801  8.70727E-01  8.90281E-01 -1.95544E-02
    9018.317     22.141   2.869  8.43103E-01  9.00298E-01 -5.71952E-02
    9019.829     23.653   2.938  8.29573E-01  9.09759E-01 -8.01863E-02
    9021.379     25.203   3.006  8.34074E-01  9.17883E-01 -8.38091E-02
    9022.965     26.790   3.075  8.58135E-01  9.25785E-01 -6.76496E-02
    9024.590     28.414   3.143  8.97068E-01  9.33723E-01 -3.66545E-02
    9026.251     30.075   3.212  9.41988E-01  9.40262E-01  1.72646E-03
    9027.950     31.774   3.281  9.86652E-01  9.46614E-01  4.00381E-02
    9029.686     33.510   3.349  1.02515E+00  9.52900E-01  7.22522E-02
    9031.460     35.284   3.418  1.04949E+00  9.57846E-01  9.16396E-02
    9033.271     37.095   3.487  1.05404E+00  9.62690E-01  9.13490E-02
    9035.119     38.943   3.556  1.03707E+00  9.67389E-01  6.96834E-02
    9037.004     40.829   3.625  1.00490E+00  9.70886E-01  3.40129E-02
    9038.927     42.751   3.694  9.68771E-01  9.74301E-01 -5.53079E-03
    9040.888     44.712   3.763  9.34298E-01  9.77498E-01 -4.32001E-02
    9042.885     46.709   3.832  9.06314E-01  9.80401E-01 -7.40868E-02
    9044.920     48.744   3.901  8.90091E-01  9.83037E-01 -9.29466E-02
    9046.992     50.816   3.970  8.89383E-01  9.85518E-01 -9.61356E-02
    9049.102     52.926   4.039  9.00990E-01  9.87857E-01 -8.68669E-02
    9051.249     55.073   4.108  9.17967E-01  9.90092E-01 -7.21253E-02
    9053.433     57.257   4.177  9.36478E-01  9.92130E-01 -5.56513E-02
    9055.655     59.479   4.247  9.55348E-01  9.94067E-01 -3.87193E-02
    9057.914     61.738   4.316  9.68855E-01  9.95849E-01 -2.69941E-02
    9060.210     64.034   4.385  9.71566E-01  9.97528E-01 -2.59620E-02
    9062.544     66.368   4.454  9.69406E-01  9.99118E-01 -2.97120E-02
    9064.914     68.739   4.524  9.78009E-01  1.00098E+00 -2.29760E-02
    9067.323     71.147   4.593  9.96324E-01  1.00238E+00 -6.05573E-03
    9069.768     73.593   4.662  1.02211E+00  1.00342E+00  1.86950E-02
    9072.251     76.076   4.732  1.05411E+00  1.00414E+00  4.99760E-02
    9074.772     78.596   4.801  1.09449E+00  1.00453E+00  8.99558E-02
    9077.329     81.153   4.871  1.14104E+00  1.00476E+00  1.36283E-01
    9079.924     83.748   4.940  1.17461E+00  1.00471E+00  1.69898E-01
    9082.557     86.381   5.009  1.01128E+00  1.00397E+00  7.30775E-03
