# # 13-atom                                                      FEFF 9.05   
# # POT  Non-SCF, core-hole, AFOLP (folp(0)= 1.150)
# # Abs   Z=30 Rmt= 1.346 Rnm= 1.427 K  shell
# # Pot 1 Z= 7 Rmt= 0.763 Rnm= 0.992
# # Pot 2 Z= 6 Rmt= 0.811 Rnm= 1.117
# # Gam_ch=1.897E+00 H-L exch
# # Mu= 6.703E+00 kf=2.524E+00 Vint=-1.757E+01 Rs_int= 1.437
# # PATH  Rmax= 3.070,  Keep_limit= 0.00, Heap_limit 0.00  Pwcrit= 2.50%
#  S02=1.000  Temp= 300.00  Debye_temp= 600.00  Global_sig2= 0.00000
#  Curved wave amplitude ratio filter   4.000%
#     file         sig2 tot  cw amp ratio   deg  nlegs   reff  inp sig2
#           1       0.00468    100.00      2.00     2   1.9832
#           2       0.00475     99.96      2.00     2   1.9835
#           3       0.00651     37.28      2.00     2   2.9510
#           4       0.00670     36.25      2.00     2   2.9861
#           5       0.00644     35.54      2.00     2   3.0115
#           6       0.00660     34.75      2.00     2   3.0399
#     6/   6 paths used
#  xsedge+50, used to normalize mu           2.2523E-04
#  -----------------------------------------------------------------------
#  omega    e    k    mu    mu0     chi     @#
    9663.644      6.712   0.050  7.65348E-01  5.49410E-01  1.97421E-01
    9663.673      6.741   0.100  7.73656E-01  5.56395E-01  1.98635E-01
    9663.720      6.789   0.150  7.98227E-01  5.77025E-01  2.02254E-01
    9663.787      6.855   0.200  8.22784E-01  5.97655E-01  2.05861E-01
    9663.873      6.941   0.250  8.61749E-01  6.30121E-01  2.11826E-01
    9663.978      7.046   0.300  9.00671E-01  6.62587E-01  2.17751E-01
    9664.101      7.170   0.350  9.48340E-01  7.01363E-01  2.25931E-01
    9664.244      7.312   0.400  9.95901E-01  7.40139E-01  2.34015E-01
    9664.406      7.474   0.450  1.04425E+00  7.77449E-01  2.44181E-01
    9664.587      7.655   0.500  1.09238E+00  8.14759E-01  2.54146E-01
    9664.787      7.855   0.550  1.13573E+00  8.45357E-01  2.65925E-01
    9665.006      8.074   0.600  1.17868E+00  8.75955E-01  2.77332E-01
    9665.244      8.313   0.650  1.21546E+00  8.98894E-01  2.90162E-01
    9665.502      8.570   0.700  1.25154E+00  9.21833E-01  3.02363E-01
    9665.778      8.846   0.750  1.28218E+00  9.38408E-01  3.15455E-01
    9666.073      9.141   0.800  1.31172E+00  9.54982E-01  3.27566E-01
    9666.387      9.456   0.850  1.33665E+00  9.66798E-01  3.39884E-01
    9666.721      9.789   0.900  1.36001E+00  9.78613E-01  3.50776E-01
    9667.073     10.141   0.950  1.37921E+00  9.87026E-01  3.61059E-01
    9667.445     10.513   1.000  1.39627E+00  9.95439E-01  3.69395E-01
    9667.835     10.903   1.050  1.40908E+00  1.00136E+00  3.76178E-01
    9668.245     11.313   1.100  1.41914E+00  1.00729E+00  3.80453E-01
    9668.673     11.742   1.150  1.42455E+00  1.01138E+00  3.82216E-01
    9669.121     12.189   1.200  1.42666E+00  1.01547E+00  3.80936E-01
    9669.588     12.656   1.250  1.42361E+00  1.01816E+00  3.76226E-01
    9670.074     13.142   1.300  1.41684E+00  1.02086E+00  3.68047E-01
    9670.578     13.646   1.350  1.40444E+00  1.02249E+00  3.55680E-01
    9671.102     14.170   1.400  1.38813E+00  1.02412E+00  3.39623E-01
    9671.645     14.713   1.450  1.36595E+00  1.02488E+00  3.18902E-01
    9672.207     15.275   1.500  1.34002E+00  1.02564E+00  2.94572E-01
    9672.788     15.856   1.550  1.30840E+00  1.02573E+00  2.65496E-01
    9673.388     16.456   1.600  1.27360E+00  1.02582E+00  2.33279E-01
    9674.007     17.075   1.650  1.23375E+00  1.02534E+00  1.96715E-01
    9674.646     17.714   1.700  1.19173E+00  1.02487E+00  1.57907E-01
    9675.303     18.371   1.750  1.14584E+00  1.02395E+00  1.15675E-01
    9675.979     19.047   1.800  1.09923E+00  1.02303E+00  7.25136E-02
    9676.674     19.742   1.850  1.05041E+00  1.02176E+00  2.73460E-02
    9677.389     20.457   1.900  1.00263E+00  1.02049E+00 -1.70916E-02
    9678.122     21.190   1.950  9.54615E-01  1.01891E+00 -6.17276E-02
    9678.875     21.943   2.000  9.09556E-01  1.01733E+00 -1.03784E-01
    9679.646     22.714   2.050  8.65553E-01  1.01550E+00 -1.44822E-01
    9680.437     23.505   2.100  8.26494E-01  1.01366E+00 -1.81316E-01
    9681.246     24.314   2.150  7.93057E-01  1.01182E+00 -2.12568E-01
    9682.075     25.143   2.200  7.65733E-01  1.00999E+00 -2.38049E-01
    9682.923     25.991   2.250  7.43014E-01  1.00826E+00 -2.59292E-01
    9683.790     26.858   2.300  7.27754E-01  1.00654E+00 -2.73349E-01
    9684.675     27.743   2.350  7.19892E-01  1.00482E+00 -2.80216E-01
    9685.580     28.648   2.400  7.19136E-01  1.00309E+00 -2.80114E-01
    9686.504     29.572   2.450  7.30035E-01  1.00611E+00 -2.73132E-01
    9687.447     30.515   2.500  7.47579E-01  1.00913E+00 -2.59515E-01
    9688.409     31.477   2.550  7.70800E-01  1.01214E+00 -2.40168E-01
    9689.390     32.458   2.600  7.98595E-01  1.01516E+00 -2.16143E-01
    9690.390     33.458   2.650  8.30482E-01  1.01784E+00 -1.87175E-01
    9691.410     34.478   2.700  8.64920E-01  1.02052E+00 -1.55598E-01
    9692.448     35.516   2.750  9.00515E-01  1.02320E+00 -1.22802E-01
    9693.505     36.573   2.800  9.35944E-01  1.02588E+00 -9.01068E-02
    9694.581     37.649   2.850  9.66680E-01  1.02561E+00 -5.90734E-02
    9695.677     38.745   2.900  9.94761E-01  1.02535E+00 -3.06763E-02
    9696.791     39.859   2.950  1.01942E+00  1.02509E+00 -5.69072E-03
    9697.925     40.993   3.000  1.04014E+00  1.02483E+00  1.53662E-02
    9699.077     42.145   3.050  1.05585E+00  1.02288E+00  3.31022E-02
    9700.249     43.317   3.100  1.06822E+00  1.02093E+00  4.75014E-02
    9701.439     44.507   3.150  1.07725E+00  1.01898E+00  5.85572E-02
    9702.649     45.717   3.200  1.08309E+00  1.01703E+00  6.64059E-02
    9703.878     46.946   3.250  1.08866E+00  1.01589E+00  7.31355E-02
    9705.125     48.194   3.300  1.09156E+00  1.01474E+00  7.71767E-02
    9706.392     49.460   3.350  1.09204E+00  1.01360E+00  7.87955E-02
    9707.678     50.746   3.400  1.09044E+00  1.01246E+00  7.83165E-02
    9708.983     52.051   3.450  1.08812E+00  1.01206E+00  7.63184E-02
    9710.307     53.375   3.500  1.08418E+00  1.01165E+00  7.27024E-02
    9711.650     54.718   3.550  1.07899E+00  1.01125E+00  6.78450E-02
    9713.012     56.080   3.600  1.07292E+00  1.01084E+00  6.21156E-02
    9714.393     57.461   3.650  1.06693E+00  1.01095E+00  5.59469E-02
    9715.793     58.861   3.700  1.06057E+00  1.01105E+00  4.94223E-02
    9717.213     60.281   3.750  1.05411E+00  1.01116E+00  4.28231E-02
    9718.651     61.719   3.800  1.04780E+00  1.01126E+00  3.63841E-02
    9720.108     63.176   3.850  1.04219E+00  1.01167E+00  3.03471E-02
    9721.585     64.653   3.900  1.03700E+00  1.01208E+00  2.47459E-02
    9723.080     66.148   3.950  1.03233E+00  1.01248E+00  1.96748E-02
    9724.595     67.663   4.000  1.02822E+00  1.01289E+00  1.51819E-02
    9726.128     69.196   4.050  1.02525E+00  1.01378E+00  1.13346E-02
    9727.681     70.749   4.100  1.02281E+00  1.01468E+00  8.03071E-03
    9729.252     72.320   4.150  1.02087E+00  1.01557E+00  5.22309E-03
    9730.843     73.911   4.200  1.01935E+00  1.01646E+00  2.84411E-03
    9732.453     75.521   4.250  1.01831E+00  1.01741E+00  8.79853E-04
    9734.081     77.149   4.300  1.01751E+00  1.01836E+00 -8.34352E-04
    9735.729     78.797   4.350  1.01687E+00  1.01930E+00 -2.38252E-03
    9737.396     80.464   4.400  1.01632E+00  1.02025E+00 -3.84004E-03
    9739.082     82.150   4.450  1.01568E+00  1.02106E+00 -5.24674E-03
    9740.787     83.855   4.500  1.01499E+00  1.02186E+00 -6.70554E-03
    9742.511     85.579   4.550  1.01420E+00  1.02266E+00 -8.24630E-03
    9744.254     87.322   4.600  1.01332E+00  1.02347E+00 -9.87612E-03
    9746.016     89.084   4.650  1.01209E+00  1.02407E+00 -1.16514E-02
    9747.797     90.865   4.700  1.01076E+00  1.02467E+00 -1.35129E-02
    9749.598     92.666   4.750  1.00940E+00  1.02528E+00 -1.54088E-02
    9751.417     94.485   4.800  1.00807E+00  1.02588E+00 -1.72703E-02
    9753.255     96.323   4.850  1.00633E+00  1.02612E+00 -1.91698E-02
    9755.112     98.181   4.900  1.00477E+00  1.02636E+00 -2.09045E-02
    9756.989    100.057   4.950  1.00348E+00  1.02660E+00 -2.23788E-02
    9758.884    101.952   5.000  1.00254E+00  1.02684E+00 -2.34999E-02
    9760.799    103.867   5.050  1.00151E+00  1.02670E+00 -2.43634E-02
    9762.732    105.800   5.100  1.00100E+00  1.02656E+00 -2.47216E-02
    9764.685    107.753   5.150  1.00108E+00  1.02642E+00 -2.45105E-02
    9766.657    109.725   5.200  1.00179E+00  1.02629E+00 -2.36893E-02
    9768.647    111.715   5.250  1.00276E+00  1.02585E+00 -2.23296E-02
    9770.657    113.725   5.300  1.00440E+00  1.02541E+00 -2.03215E-02
    9772.686    115.754   5.350  1.00667E+00  1.02497E+00 -1.76983E-02
    9774.734    117.802   5.400  1.00952E+00  1.02453E+00 -1.45228E-02
    9776.801    119.869   5.450  1.01257E+00  1.02378E+00 -1.08490E-02
    9778.887    121.955   5.500  1.01601E+00  1.02302E+00 -6.78713E-03
    9780.992    124.060   5.550  1.01972E+00  1.02227E+00 -2.47106E-03
    9783.116    126.184   5.600  1.02353E+00  1.02151E+00  1.95111E-03
    9785.259    128.327   5.650  1.02725E+00  1.02062E+00  6.42706E-03
    9787.421    130.489   5.700  1.03076E+00  1.01972E+00  1.07113E-02
    9789.602    132.670   5.750  1.03392E+00  1.01882E+00  1.46469E-02
    9791.803    134.871   5.800  1.03656E+00  1.01793E+00  1.80914E-02
    9794.022    137.090   5.850  1.03860E+00  1.01698E+00  2.10041E-02
    9796.260    139.328   5.900  1.03989E+00  1.01603E+00  2.31911E-02
    9798.518    141.586   5.950  1.04036E+00  1.01509E+00  2.45824E-02
    9800.794    143.862   6.000  1.03997E+00  1.01414E+00  2.51428E-02
    9803.090    146.158   6.050  1.03894E+00  1.01338E+00  2.48922E-02
    9805.404    148.472   6.100  1.03704E+00  1.01261E+00  2.38046E-02
    9807.738    150.806   6.150  1.03436E+00  1.01185E+00  2.19521E-02
    9810.091    153.159   6.200  1.03101E+00  1.01109E+00  1.94379E-02
    9812.462    155.530   6.250  1.02711E+00  1.01033E+00  1.63901E-02
    9814.853    157.921   6.300  1.02282E+00  1.00956E+00  1.29549E-02
    9817.263    160.331   6.350  1.01830E+00  1.00880E+00  9.28808E-03
    9819.692    162.760   6.400  1.01371E+00  1.00804E+00  5.54742E-03
    9822.140    165.208   6.450  1.00920E+00  1.00727E+00  1.88456E-03
    9824.607    167.675   6.500  1.00492E+00  1.00651E+00 -1.56202E-03
    9827.093    170.161   6.550  1.00121E+00  1.00609E+00 -4.78883E-03
    9829.598    172.666   6.600  9.97950E-01  1.00568E+00 -7.57610E-03
    9832.122    175.190   6.650  9.95222E-01  1.00526E+00 -9.84637E-03
    9834.665    177.733   6.700  9.93071E-01  1.00484E+00 -1.15529E-02
    9837.227    180.295   6.750  9.91511E-01  1.00442E+00 -1.26800E-02
    9839.808    182.876   6.800  9.90529E-01  1.00400E+00 -1.32410E-02
    9842.409    185.477   6.850  9.90084E-01  1.00359E+00 -1.32752E-02
    9845.028    188.096   6.900  9.90112E-01  1.00317E+00 -1.28436E-02
    9847.667    190.735   6.950  9.90534E-01  1.00275E+00 -1.20231E-02
    9850.324    193.392   7.000  9.91262E-01  1.00233E+00 -1.09010E-02
    9853.001    196.069   7.050  9.92170E-01  1.00191E+00 -9.59533E-03
    9855.696    198.764   7.100  9.93225E-01  1.00148E+00 -8.14390E-03
    9858.411    201.479   7.150  9.94338E-01  1.00106E+00 -6.63292E-03
    9861.144    204.212   7.200  9.95431E-01  1.00064E+00 -5.13912E-03
    9863.897    206.965   7.250  9.96440E-01  1.00021E+00 -3.72617E-03
    9866.669    209.737   7.300  9.97317E-01  9.99787E-01 -2.44239E-03
    9869.460    212.528   7.350  9.98029E-01  9.99363E-01 -1.31967E-03
    9872.269    215.338   7.400  9.98562E-01  9.98939E-01 -3.73668E-04
    9875.098    218.166   7.450  9.98913E-01  9.98515E-01  3.94799E-04
    9877.946    221.014   7.500  9.99097E-01  9.98091E-01  9.97526E-04
    9880.813    223.881   7.550  9.99005E-01  9.97505E-01  1.48865E-03
    9883.699    226.767   7.600  9.98799E-01  9.96920E-01  1.86652E-03
    9886.605    229.673   7.650  9.98506E-01  9.96335E-01  2.15958E-03
    9889.529    232.597   7.700  9.98157E-01  9.95749E-01  2.39693E-03
    9892.472    235.540   7.750  9.97778E-01  9.95164E-01  2.60525E-03
    9895.434    238.502   7.800  9.97392E-01  9.94579E-01  2.80626E-03
    9898.416    241.484   7.850  9.97012E-01  9.93993E-01  3.01475E-03
    9901.416    244.484   7.900  9.96647E-01  9.93408E-01  3.23748E-03
    9904.435    247.503   7.950  9.96293E-01  9.92823E-01  3.47283E-03
    9907.474    250.542   8.000  9.95943E-01  9.92237E-01  3.71130E-03
    9910.531    253.599   8.050  9.95056E-01  9.91078E-01  3.98975E-03
    9913.608    256.676   8.100  9.94140E-01  9.89918E-01  4.23919E-03
    9916.703    259.771   8.150  9.93167E-01  9.88758E-01  4.43297E-03
    9919.818    262.886   8.200  9.92112E-01  9.87599E-01  4.54310E-03
    9922.952    266.020   8.250  9.90946E-01  9.86439E-01  4.54292E-03
    9926.105    269.173   8.300  9.89649E-01  9.85279E-01  4.40964E-03
    9929.276    272.344   8.350  9.88204E-01  9.84120E-01  4.12673E-03
    9932.467    275.535   8.400  9.86603E-01  9.82960E-01  3.68581E-03
    9935.677    278.745   8.450  9.84849E-01  9.81800E-01  3.08796E-03
    9938.906    281.974   8.500  9.82952E-01  9.80641E-01  2.34436E-03
    9942.154    285.222   8.550  9.80952E-01  9.79497E-01  1.47744E-03
    9945.421    288.489   8.600  9.78838E-01  9.78354E-01  4.91589E-04
    9948.707    291.775   8.650  9.76645E-01  9.77211E-01 -5.75965E-04
    9952.012    295.081   8.700  9.74420E-01  9.76068E-01 -1.68051E-03
    9955.337    298.405   8.750  9.72209E-01  9.74925E-01 -2.77235E-03
    9958.680    301.748   8.800  9.70064E-01  9.73781E-01 -3.79961E-03
    9962.042    305.110   8.850  9.68035E-01  9.72638E-01 -4.71144E-03
    9965.424    308.492   8.900  9.66167E-01  9.71495E-01 -5.46101E-03
    9968.824    311.892   8.950  9.64497E-01  9.70352E-01 -6.00846E-03
    9972.243    315.312   9.000  9.63055E-01  9.69208E-01 -6.32342E-03
    9975.682    318.750   9.050  9.61990E-01  9.68231E-01 -6.42192E-03
    9979.140    322.208   9.100  9.61183E-01  9.67254E-01 -6.25442E-03
    9982.616    325.684   9.150  9.60630E-01  9.66278E-01 -5.82456E-03
    9986.112    329.180   9.200  9.60313E-01  9.65301E-01 -5.14972E-03
    9989.627    332.695   9.250  9.60202E-01  9.64324E-01 -4.26006E-03
    9993.160    336.228   9.300  9.60258E-01  9.63347E-01 -3.19683E-03
    9996.713    339.781   9.350  9.60430E-01  9.62370E-01 -2.01001E-03
   10000.285    343.353   9.400  9.60665E-01  9.61393E-01 -7.55369E-04
   10003.876    346.944   9.450  9.60906E-01  9.60416E-01  5.08664E-04
   10007.486    350.554   9.500  9.61097E-01  9.59439E-01  1.72432E-03
   10011.115    354.183   9.550  9.61424E-01  9.58690E-01  2.84633E-03
   10014.763    357.831   9.600  9.61603E-01  9.57941E-01  3.81645E-03
   10018.430    361.498   9.650  9.61598E-01  9.57191E-01  4.59598E-03
   10022.116    365.184   9.700  9.61382E-01  9.56442E-01  5.15756E-03
   10025.821    368.889   9.750  9.60942E-01  9.55693E-01  5.48619E-03
   10029.546    372.614   9.800  9.60277E-01  9.54944E-01  5.57953E-03
   10033.289    376.357   9.850  9.59396E-01  9.54195E-01  5.44732E-03
   10037.051    380.119   9.900  9.58320E-01  9.53445E-01  5.11011E-03
   10040.833    383.901   9.950  9.57077E-01  9.52696E-01  4.59745E-03
   10044.633    387.701  10.000  9.55703E-01  9.51947E-01  3.94553E-03
