 # Compton profile, J(pq)
 # ns:            32
 # nphi:          32
 # nz:            32
 # nzp:          120
 # zpmax:   10.0000000000000     
 # temperature (eV):  0.0000000E+00
 #----------------------------
 # pq               J
  0.000000000000000E+000   2.74476734850343     
  5.005004815757275E-003   2.74473136578831     
  1.001000963151455E-002   2.74462341659279     
  1.501501444727182E-002   2.74444349732928     
  2.002001926302910E-002   2.74419160222468     
  2.502502501010895E-002   2.74386772316588     
  3.003002889454365E-002   2.74347185011871     
  3.503503277897835E-002   2.74300397065285     
  4.004003852605820E-002   2.74246407024492     
  4.504504427313805E-002   2.74185213288582     
  5.005005002021790E-002   2.74116814069551     
  5.505505204200745E-002   2.74041207483538     
  6.006005778908730E-002   2.73958391338783     
  6.506506353616714E-002   2.73868363493267     
  7.007006555795670E-002   2.73771121731966     
  7.507507503032684E-002   2.73666663468810     
  8.008007705211639E-002   2.73554986608303     
  8.508507907390594E-002   2.73436088575302     
  9.009008854627609E-002   2.73309966761542     
  9.509509056806564E-002   2.73176619167444     
  0.100100100040436        2.73036043092560     
  0.105105102062225        2.72888236756572     
  0.110110104084015        2.72733197895845     
  0.115115113556385        2.72570924378421     
  0.120120115578175        2.72401415014128     
  0.125125125050545        2.72224667874940     
  0.130130127072334        2.72040682352853     
  0.135135129094124        2.71849457385440     
  0.140140131115913        2.71650992538815     
  0.145145133137703        2.71445287792119     
  0.150150150060654        2.71232342935795     
  0.155155152082443        2.71012160172900     
  0.160160154104233        2.70784740359625     
  0.165165156126022        2.70550085564779     
  0.170170158147812        2.70308198492132     
  0.175175175070763        2.70059081774002     
  0.180180177092552        2.69802741005861     
  0.185185179114342        2.69539180342835     
  0.190190181136131        2.69268405491735     
  0.195195183157921        2.68990423027034     
  0.200200200080872        2.68705239578001     
  0.205205202102661        2.68412865293234     
  0.210210204124451        2.68113308792929     
  0.215215206146240        2.67806580590146     
  0.220220208168030        2.67492692298578     
  0.225225210189819        2.67171656678251     
  0.230230227112770        2.66843486693053     
  0.235235229134560        2.66508199484792     
  0.240240231156349        2.66165810554828     
  0.245245233178139        2.65816337694252     
  0.250250250101089        2.65459798987859     
  0.255255252122879        2.65096217122684     
  0.260260254144669        2.64725613059401     
  0.265265256166458        2.64348010296814     
  0.270270258188248        2.63963433859172     
  0.275275260210037        2.63571910333281     
  0.280280262231827        2.63173467904336     
  0.285285264253616        2.62768136390398     
  0.290290266275406        2.62355947275469     
  0.295295298099518        2.61936931225818     
  0.300300300121307        2.61511128140780     
  0.305305302143097        2.61078572210776     
  0.310310304164886        2.60639301883776     
  0.315315306186676        2.60193357415631     
  0.320320308208466        2.59740780893374     
  0.325325310230255        2.59281616256699     
  0.330330312252045        2.58815909317572     
  0.335335314273834        2.58343707777932     
  0.340340316295624        2.57865061245437     
  0.345345318317413        2.57380021247216     
  0.350350350141525        2.56888638296903     
  0.355355352163315        2.56390973645813     
  0.360360354185104        2.55887081734477     
  0.365365356206894        2.55377021864418     
  0.370370358228683        2.54860855294368     
  0.375375360250473        2.54338645241426     
  0.380380362272263        2.53810456880036     
  0.385385364294052        2.53276357338786     
  0.390390366315842        2.52736415694995     
  0.395395368337631        2.52190702967101     
  0.400400400161743        2.51639288804643     
  0.405405402183533        2.51082254643762     
  0.410410404205322        2.50519673992010     
  0.415415406227112        2.49951625512024     
  0.420420408248901        2.49378189736402     
  0.425425410270691        2.48799449046907     
  0.430430412292480        2.48215487651501     
  0.435435414314270        2.47626391559246     
  0.440440416336060        2.47032248553077     
  0.445445418357849        2.46433148160494     
  0.450450420379639        2.45829181622183     
  0.455455452203751        2.45220438219839     
  0.460460454225540        2.44607019768267     
  0.465465456247330        2.43989018828697     
  0.470470458269119        2.43366533140712     
  0.475475460290909        2.42739661970466     
  0.480480462312698        2.42108506067689     
  0.485485464334488        2.41473167620919     
  0.490490466356277        2.40833750211002     
  0.495495468378067        2.40190358762906     
  0.500500500202179        2.39543095630514     
  0.505505502223969        2.38892075984831     
  0.510510504245758        2.38237404635499     
  0.515515506267548        2.37579191370625     
  0.520520508289337        2.36917547058389     
  0.525525510311127        2.36252583590036     
  0.530530512332916        2.35584413821612     
  0.535535514354706        2.34913151514533     
  0.540540516376495        2.34238911275042     
  0.545545518398285        2.33561808492621     
  0.550550520420074        2.32881959277452     
  0.555555522441864        2.32199480396978     
  0.560560524463654        2.31514489211645     
  0.565565526485443        2.30827103609917     
  0.570570528507233        2.30137441942617     
  0.575575530529022        2.29445622956676     
  0.580580532550812        2.28751765728389     
  0.585585534572601        2.28055989596224     
  0.590590596199036        2.27358405775605     
  0.595595598220825        2.26659150542519     
  0.600600600242615        2.25958335318735     
  0.605605602264404        2.25256079813664     
  0.610610604286194        2.24552503659216     
  0.615615606307983        2.23847726341674     
  0.620620608329773        2.23141867133670     
  0.625625610351562        2.22435045026351     
  0.630630612373352        2.21727378661815     
  0.635635614395142        2.21018986265890     
  0.640640616416931        2.20309985581320     
  0.645645618438721        2.19600493801454     
  0.650650620460510        2.18890627504480     
  0.655655622482300        2.18180502588302     
  0.660660624504089        2.17470234206117     
  0.665665626525879        2.16759936702759     
  0.670670628547668        2.16049723551878     
  0.675675630569458        2.15339707294033     
  0.680680632591248        2.14629999475732     
  0.685685634613037        2.13920710589517     
  0.690690636634827        2.13211950015125     
  0.695695698261261        2.12503817532958     
  0.700700700283051        2.11796436992455     
  0.705705702304840        2.11089905656594     
  0.710710704326630        2.10384327889285     
  0.715715706348419        2.09679806665741     
  0.720720708370209        2.08976443521325     
  0.725725710391998        2.08274338501843     
  0.730730712413788        2.07573590115337     
  0.735735714435577        2.06874295285411     
  0.740740716457367        2.06176549306134     
  0.745745718479156        2.05480445798558     
  0.750750720500946        2.04786076668872     
  0.755755722522736        2.04093532068246     
  0.760760724544525        2.03402900354372     
  0.765765726566315        2.02714268054740     
  0.770770728588104        2.02027719831670     
  0.775775730609894        2.01343338449128     
  0.780780732631683        2.00661204741333     
  0.785785734653473        1.99981397583178     
  0.790790736675262        1.99303993862489     
  0.795795738697052        1.98629068454113     
  0.800800800323486        1.97956686204022     
  0.805805802345276        1.97286933906111     
  0.810810804367065        1.96619872236709     
  0.815815806388855        1.95955567796737     
  0.820820808410645        1.95294085072452     
  0.825825810432434        1.94635486420690     
  0.830830812454224        1.93979832055968     
  0.835835814476013        1.93327180039433     
  0.840840816497803        1.92677586269655     
  0.845845818519592        1.92031104475240     
  0.850850820541382        1.91387786209260     
  0.855855822563171        1.90747680845488     
  0.860860824584961        1.90110835576400     
  0.865865826606750        1.89477295412954     
  0.870870828628540        1.88847103186094     
  0.875875830650330        1.88220299549984     
  0.880880832672119        1.87596922986922     
  0.885885834693909        1.86977009813929     
  0.890890836715698        1.86360594190967     
  0.895895838737488        1.85747708130768     
  0.900900840759277        1.85138381510234     
  0.905905842781067        1.84532642083388     
  0.910910904407501        1.83930508346696     
  0.915915906429291        1.83332018194940     
  0.920920908451080        1.82737185913751     
  0.925925910472870        1.82146030924683     
  0.930930912494659        1.81558570613032     
  0.935935914516449        1.80974820349285     
  0.940940916538239        1.80394793511835     
  0.945945918560028        1.79818501510943     
  0.950950920581818        1.79245953813896     
  0.955955922603607        1.78677157971311     
  0.960960924625397        1.78112119644551     
  0.965965926647186        1.77550842634214     
  0.970970928668976        1.76993328909630     
  0.975975930690765        1.76439578639346     
  0.980980932712555        1.75889590222532     
  0.985985934734344        1.75343360321278     
  0.990990936756134        1.74800883893734     
  0.995995938777924        1.74262154228034     
   1.00100100040436        1.73727156627983     
   1.00600600242615        1.73195893888760     
   1.01101100444794        1.72668348105820     
   1.01601600646973        1.72144506240821     
   1.02102100849152        1.71624353765375     
   1.02602601051331        1.71107874698791     
   1.03103101253510        1.70595051646295     
   1.03603601455688        1.70085865837674     
   1.04104101657867        1.69580297166326     
   1.04604601860046        1.69078324228636     
   1.05105102062225        1.68579924363674     
   1.05605602264404        1.68085073693142     
   1.06106102466583        1.67593747161551     
   1.06606602668762        1.67105918576564     
   1.07107102870941        1.66621560649491     
   1.07607603073120        1.66140645035880     
   1.08108103275299        1.65663142376161     
   1.08608603477478        1.65189022336327     
   1.09109103679657        1.64718253648587     
   1.09609603881836        1.64250804151983     
   1.10110104084015        1.63786640832911     
   1.10610604286194        1.63325729865529     
   1.11111104488373        1.62868036652008     
   1.11611604690552        1.62413525862603     
   1.12112104892731        1.61962161475504     
   1.12612605094910        1.61513906816440     
   1.13113105297089        1.61068724598007     
   1.13613605499268        1.60626576958691     
   1.14114105701447        1.60187425501560     
   1.14614605903625        1.59751231332593     
   1.15115106105804        1.59317955098630     
   1.15615606307983        1.58887557024904     
   1.16116106510162        1.58459996952150     
   1.16616606712341        1.58035234373255     
   1.17117106914520        1.57613228469428     
   1.17617619037628        1.57193928191218     
   1.18118119239807        1.56777312175503     
   1.18618619441986        1.56363328861579     
   1.19119119644165        1.55951936535432     
   1.19619619846344        1.55543093344403     
   1.20120120048523        1.55136757330093     
   1.20620620250702        1.54732886460680     
   1.21121120452881        1.54331438662619     
   1.21621620655060        1.53932371851711     
   1.22122120857239        1.53535643963533     
   1.22622621059418        1.53141212983220     
   1.23123121261597        1.52749036974579     
   1.23623621463776        1.52359074108537     
   1.24124121665955        1.51971282690903     
   1.24624621868134        1.51585621189445     
   1.25125122070312        1.51202048260268     
   1.25625622272491        1.50820522773487     
   1.26126122474670        1.50441003838193     
   1.26626622676849        1.50063450826702     
   1.27127122879028        1.49687823398083     
   1.27627623081207        1.49314081520968     
   1.28128123283386        1.48942185495620     
   1.28628623485565        1.48572095975287     
   1.29129123687744        1.48203773986809     
   1.29629623889923        1.47837180950497     
   1.30130124092102        1.47472278699271     
   1.30630624294281        1.47109029497064     
   1.31131124496460        1.46747396056482     
   1.31631624698639        1.46387341555729     
   1.32132124900818        1.46028829654798     
   1.32632625102997        1.45671824510914     
   1.33133125305176        1.45316290793252     
   1.33633625507355        1.44962193696915     
   1.34134125709534        1.44609498956179     
   1.34634625911713        1.44258172857009     
   1.35135126113892        1.43908182248853     
   1.35635626316071        1.43559494555700     
   1.36136126518250        1.43212077786427     
   1.36636626720428        1.42865900544428     
   1.37137126922607        1.42520932036519     
   1.37637627124786        1.42177142081150     
   1.38138127326965        1.41834501115898     
   1.38638627529144        1.41492980204266     
   1.39139139652252        1.41152542946218     
   1.39639639854431        1.40813177890897     
   1.40140140056610        1.40474849892229     
   1.40640640258789        1.40137532571610     
   1.41141140460968        1.39801200200043     
   1.41641640663147        1.39465827700847     
   1.42142140865326        1.39131390651715     
   1.42642641067505        1.38797865286114     
   1.43143141269684        1.38465228494043     
   1.43643641471863        1.38133457822147     
   1.44144141674042        1.37802531473206     
   1.44644641876221        1.37472428305001     
   1.45145142078400        1.37143127828561     
   1.45645642280579        1.36814610205807     
   1.46146142482758        1.36486856246601     
   1.46646642684937        1.36159847405196     
   1.47147142887115        1.35833565776121     
   1.47647643089294        1.35507994089481     
   1.48148143291473        1.35183115705708     
   1.48648643493652        1.34858914609754     
   1.49149143695831        1.34535375404749     
   1.49649643898010        1.34212483305127     
   1.50150144100189        1.33890224129232     
   1.50650644302368        1.33568584291420     
   1.51151144504547        1.33247550793663     
   1.51651644706726        1.32927111216673     
   1.52152144908905        1.32607253710546     
   1.52652645111084        1.32287966984956     
   1.53153145313263        1.31969240298901     
   1.53653645515442        1.31651063450011     
   1.54154145717621        1.31333426763443     
   1.54654645919800        1.31016321080367     
   1.55155146121979        1.30699737746062     
   1.55655646324158        1.30383668597639     
   1.56156146526337        1.30068105951398     
   1.56656646728516        1.29753042589840     
   1.57157146930695        1.29438471748351     
   1.57657647132874        1.29124387101575     
   1.58158147335052        1.28810782749478     
   1.58658647537231        1.28497653203143     
   1.59159147739410        1.28184993370297     
   1.59659647941589        1.27872798540591     
   1.60160160064697        1.27561056951210     
   1.60660660266876        1.27249779460308     
   1.61161160469055        1.26938954982439     
   1.61661660671234        1.26628580183460     
   1.62162160873413        1.26318652034490     
   1.62662661075592        1.26009167796098     
   1.63163161277771        1.25700125002371     
   1.63663661479950        1.25391521444885     
   1.64164161682129        1.25083355156611     
   1.64664661884308        1.24775624395748     
   1.65165162086487        1.24468327629534     
   1.65665662288666        1.24161463518034     
   1.66166162490845        1.23855030897939     
   1.66666662693024        1.23549028766385     
   1.67167162895203        1.23243456264827     
   1.67667663097382        1.22938312662969     
   1.68168163299561        1.22633597342801     
   1.68668663501740        1.22329309782725     
   1.69169163703918        1.22025449541830     
   1.69669663906097        1.21722016244308     
   1.70170164108276        1.21419009564048     
   1.70670664310455        1.21116429209422     
   1.71171164512634        1.20814274908286     
   1.71671664714813        1.20512546393217     
   1.72172164916992        1.20211243387005     
   1.72672665119171        1.19910365588418     
   1.73173165321350        1.19609912658269     
   1.73673665523529        1.19309884205792     
   1.74174165725708        1.19010279775355     
   1.74674665927887        1.18711098833529     
   1.75175166130066        1.18412340756526     
   1.75675666332245        1.18114004818029     
   1.76176166534424        1.17816090177430     
   1.76676666736603        1.17518595868494     
   1.77177166938782        1.17221520788466     
   1.77677667140961        1.16924863687636     
   1.78178167343140        1.16628623159375     
   1.78678667545319        1.16332797630668     
   1.79179167747498        1.16037385353146     
   1.79679667949677        1.15742384394632     
   1.80180168151855        1.15447792631228     
   1.80680668354034        1.15153607739931     
   1.81181168556213        1.14859827191817     
   1.81681680679321        1.14566441262836     
   1.82182180881500        1.14273460969377     
   1.82682681083679        1.13980876137034     
   1.83183181285858        1.13688683356416     
   1.83683681488037        1.13396878986766     
   1.84184181690216        1.13105459152662     
   1.84684681892395        1.12814419741329     
   1.85185182094574        1.12523756400573     
   1.85685682296753        1.12233464537330     
   1.86186182498932        1.11943539316838     
   1.86686682701111        1.11653975662438     
   1.87187182903290        1.11364768255995     
   1.87687683105469        1.11075911538947     
   1.88188183307648        1.10787399713975     
   1.88688683509827        1.10499226747297     
   1.89189183712006        1.10211386371578     
   1.89689683914185        1.09923872089451     
   1.90190184116364        1.09636677177650     
   1.90690684318542        1.09349794691738     
   1.91191184520721        1.09063217471436     
   1.91691684722900        1.08776938146527     
   1.92192184925079        1.08490949143347     
   1.92692685127258        1.08205242691828     
   1.93193185329437        1.07919810833102     
   1.93693685531616        1.07634645427642     
   1.94194185733795        1.07349738163933     
   1.94694685935974        1.07065080567645     
   1.95195186138153        1.06780664011317     
   1.95695686340332        1.06496479724507     
   1.96196186542511        1.06212518804413     
   1.96696686744690        1.05928772226936     
   1.97197186946869        1.05645230858169     
   1.97697687149048        1.05361885466287     
   1.98198187351227        1.05078726733831     
   1.98698687553406        1.04795745270345     
   1.99199187755585        1.04512931625365     
   1.99699687957764        1.04230276301716     
   2.00200200080872        1.03947763042059     
   2.00700688362122        1.03665402478028     
   2.01201200485229        1.03383158152936     
